&parameters
!PEST coordinates
!s0, alpha0 = 0.36 0.0
!major, minor radius[m] = 5.536095426870263 0.5276259637027317
!Bref = 2.3096659930877763
my_dpdx = 0.3748975794996279
q0 = 1.403356496923149
shat = -0.4590172893592077
gridpoints = 256
n_pol = 1
sign_Ip_CW = 1
sign_Bt_CW = 1
/
     0.2714034273538578      0.4053440918505292      3.7501217334523265      0.9238463393092065     14.9742682394849975      0.0801622015700845      0.0032600103885676     -0.0845427543401644      0.0000000000000000
     0.2718277212142318      0.3559684373002835      3.6149232014928625      0.9251609632232944     14.9599801787284772      0.0979826845783834     -0.0074255469413019      0.1736674852271597      0.0000000000000000
     0.2738380729948410      0.3091489560367088      3.5163926934455443      0.9313158014592470     14.9159451791088777      0.1222119972462603     -0.0172813112541768      0.2934225621815861      0.0000000000000000
     0.2773946424652577      0.2629824898520396      3.4272909363826263      0.9389101948288231     14.9041113308027473      0.1447004050804735     -0.0265858532619767      0.3500429452873164      0.0000000000000000
     0.2844552505730460      0.2167405058104219      3.3318373812553692      0.9490954590001367     14.8930813859627982      0.1658741813970413     -0.0324606415810651      0.4870009333026906      0.0000000000000000
     0.2962193939741757      0.1661397245119274      3.2243154335062099      0.9630692371963149     14.8786576425914170      0.1886860736046631     -0.0343513512674482      0.7083521646045372      0.0000000000000000
     0.3151536324972036      0.1051521536719663      3.1022338569780130      0.9831700226616853     14.8124909640172842      0.2244342457801967     -0.0396614014705098      0.9776995027263291      0.0000000000000000
     0.3438230720279527      0.0372260927359815      2.9654179161212642      1.0090556554458010     14.6494052830969732      0.2664700961415712     -0.0493406026847980      1.0964787965893705      0.0000000000000000
     0.3831421205733496     -0.0263508132794316      2.8028546438264788      1.0359523669233301     14.4700233903071229      0.2946853665132299     -0.0567833658811097      1.0701030834976302      0.0000000000000000
     0.4348559596736401     -0.0750039114525845      2.6110106583827855      1.0629148408202613     14.3059144559835403      0.3098849023141706     -0.0578717482963078      1.0999674066136815      0.0000000000000000
     0.5019246581767400     -0.1039303916804686      2.3897619416760802      1.0902655270092205     14.1531723071064484      0.3334234863712273     -0.0552792958318233      1.0699426093703583      0.0000000000000000
     0.5831310896930140     -0.1094133706628583      2.1461010610183768      1.1133224890494089     14.0449703214505401      0.3722093679562002     -0.0551544113631358      0.7944996598449977      0.0000000000000000
     0.6717012034601610     -0.0856707383800725      1.9084717903321335      1.1289744562749309     13.9970166435704222      0.4028955478862965     -0.0566212424646177      0.5170950917661393      0.0000000000000000
     0.7638119894073823     -0.0289490617223118      1.7026295582088400      1.1400222900911647     13.9911740257319295      0.4097392521695396     -0.0536517388744078      0.4027616713482985      0.0000000000000000
     0.8592496679612698      0.0625624076964725      1.5402891513527932      1.1487292487820853     14.0121192886743984      0.4158188750070622     -0.0475886182327645      0.3312042653606319      0.0000000000000000
     0.9569603120854315      0.1882131146069650      1.4364822538156308      1.1572520595818940     14.0056202101738858      0.4363509831843589     -0.0416879937273262      0.3624057259254663      0.0000000000000000
     1.0555109564689571      0.3445062002947152      1.4055006193063215      1.1682622911659113     13.9341878377467339      0.4486634835564881     -0.0351313675058862      0.4549681644082475      0.0000000000000000
     1.1461973635481630      0.5275759951878295      1.4565085924118781      1.1794532114116745     13.8486568340680076      0.4468124679044339     -0.0274900639572497      0.3669252691333368      0.0000000000000000
     1.2163377481843762      0.7296337164028602      1.5960727903984988      1.1870123098349969     13.7891014139368142      0.4488093209904349     -0.0189375521296889      0.1966649117552565      0.0000000000000000
     1.2628529074521038      0.9394027178616582      1.8221220332937929      1.1910477073365850     13.7558681370355345      0.4477632508747355     -0.0087415246712235      0.1025485106271271      0.0000000000000000
     1.2822714716184485      1.1422356684888737      2.1239282029699740      1.1911130173354714     13.7627365989548540      0.4373068700629986      0.0006501714586900     -0.0827991242742842      0.0000000000000000
     1.2698365414952455      1.3230699954147123      2.4864773511665903      1.1861305102495912     13.8103214772645657      0.4304178130470295      0.0078175123391264     -0.2709780873469725      0.0000000000000000
     1.2366244720287169      1.4808436687278057      2.8979601312547247      1.1793177884107060     13.8661459623718617      0.4171026697179618      0.0163821549740626     -0.2244199347397728      0.0000000000000000
     1.1937163054931810      1.6164341324264782      3.3448737049559445      1.1747216593508254     13.8749895068196949      0.3874176062616511      0.0265290734339829     -0.1510694879284266      0.0000000000000000
     1.1375743453401836      1.7167700049628523      3.7957794679424084      1.1707613306563147     13.8373074107530716      0.3652118451727778      0.0336406450098345     -0.2433625288222035      0.0000000000000000
     1.0656975094639138      1.7730149039741463      4.2205205532186261      1.1637080357597855     13.8262723983726996      0.3531814847963089      0.0384261523003614     -0.3936906390245636      0.0000000000000000
     0.9779853946291976      1.7789218274852356      4.5907068916870530      1.1511218105787628     13.8796635264738999      0.3230771050654660      0.0447259394006706     -0.6515832129212823      0.0000000000000000
     0.8769190057176182      1.7276596473710335      4.8618678804871687      1.1307769411042252     13.9970543085261809      0.2787223285630004      0.0523047459814777     -0.9679679518908496      0.0000000000000000
     0.7719040340013394      1.6266125336687367      5.0066577106856904      1.1039886544045499     14.1785837837340445      0.2485643456924138      0.0577158983537738     -1.1146510115048820      0.0000000000000000
     0.6694870145463205      1.4861760358739444      5.0232230482139784      1.0743665074559299     14.4069441365081818      0.2320900713899131      0.0583027081200890     -1.2111749107788072      0.0000000000000000
     0.5722363475030513      1.3151915274071575      4.9206166331642711      1.0421261612017578     14.6619815054107594      0.2009774431917394      0.0546204891411322     -1.3579123390264851      0.0000000000000000
     0.4889988020336545      1.1434279335686237      4.7591636219115134      1.0098504198800262     14.8908301459403312      0.1471961894057221      0.0510657864248985     -1.2059029792739435      0.0000000000000000
     0.4279225513912903      1.0019706026420672      4.6169098233529215      0.9857660688996079     14.9663559047809525      0.1041717502260785      0.0510270803183459     -0.7725804097578362      0.0000000000000000
     0.3858711085552894      0.8881257706651305      4.4858339389819131      0.9706628303949622     14.9447116220645988      0.0919959200205412      0.0519459742904377     -0.5547244907941838      0.0000000000000000
     0.3544543176288300      0.7817104611596998      4.3072797720058302      0.9569026425589379     14.9715049572202918      0.0887502576026904      0.0459037451148804     -0.5764777107813954      0.0000000000000000
     0.3299872443997578      0.6784891075526730      4.0871003215705448      0.9425197629932252     15.0389963584756057      0.0789840878244467      0.0327529548795810     -0.5746926111851232      0.0000000000000000
     0.3118009246156138      0.5876252211777131      3.8825801745894153      0.9302089484449581     15.0967005153698608      0.0644077744603160      0.0201271926303241     -0.4040222751098171      0.0000000000000000
     0.3000586869771563      0.5153596311014716      3.7283702506801171      0.9236527121243795     15.1047943036547334      0.0605900239165232      0.0100507997182090     -0.0958145083647038      0.0000000000000000
     0.2944387442531454      0.4608116967957648      3.6213026835877056      0.9240694751003939     15.0511210588690609      0.0757493564889789      0.0015664638195615      0.0936535196544657      0.0000000000000000
     0.2921304598365159      0.4177248578662446      3.5362793900462557      0.9265855963942201     15.0332059331310397      0.0994481910343219     -0.0085396920985993      0.1217228082136921      0.0000000000000000
     0.2914279417933467      0.3792451193368060      3.4661444533056018      0.9307547923295847     15.0388929344695228      0.1266870516379609     -0.0217138061475009      0.2751703340269361      0.0000000000000000
     0.2918733592375252      0.3420882964793104      3.4344144997638302      0.9409514835909537     14.9803232017694121      0.1568700609921849     -0.0303316669214822      0.5534070966642824      0.0000000000000000
     0.2920169498795880      0.3014123145380477      3.4455274879220275      0.9567147142142669     14.8875996827076289      0.1843979876767714     -0.0347499526081682      0.7579664945712216      0.0000000000000000
     0.2920540045024179      0.2522179300855478      3.4814308429893241      0.9762950040006465     14.7627672088740312      0.2073637662356088     -0.0416113690827542      0.8509628997760853      0.0000000000000000
     0.2939513401402403      0.1930514612938941      3.5179603648106315      0.9984188986034999     14.6028273214264335      0.2260635251651692     -0.0488097275751785      0.9037982308266088      0.0000000000000000
     0.2997035962846376      0.1214811513069606      3.5377669431259471      1.0225085845844477     14.4357499879790740      0.2424993456490016     -0.0512953793127214      1.0286170250717108      0.0000000000000000
     0.3113287815484269      0.0336958763802346      3.5382081471064795      1.0490045849367604     14.2653087705925099      0.2624275094044516     -0.0503402056068469      1.0995383112269512      0.0000000000000000
     0.3301397768797836     -0.0692352806497129      3.5016669572523438      1.0729613338270652     14.1436935964807784      0.2885523229289084     -0.0531617705961621      0.8442812882725508      0.0000000000000000
     0.3560053013824283     -0.1757308118177902      3.4101714903226950      1.0877305782940718     14.1324657601010557      0.3144781422142556     -0.0629016118701025      0.4972832515332199      0.0000000000000000
     0.3904984896942084     -0.2766912699815991      3.2846071070593972      1.0982149405565047     14.1555985900049741      0.3311661038379203     -0.0682143632347885      0.4831512282659818      0.0000000000000000
     0.4359287528211735     -0.3714434645654131      3.1449053689737507      1.1103983194642282     14.1469539439986107      0.3403665895504199     -0.0623761262234283      0.5099710572720831      0.0000000000000000
     0.4918202109439778     -0.4558900823087729      2.9773902586864605      1.1209393105526366     14.1520602832303837      0.3579982277324188     -0.0592226499506637      0.3610519232737836      0.0000000000000000
     0.5575244775880581     -0.5253272047209597      2.7853747920699199      1.1300203333638696     14.1482382856952320      0.3813386303729417     -0.0636379882596504      0.4147727001246835      0.0000000000000000
     0.6352644922174437     -0.5800482039834347      2.5880176059882332      1.1435120337685611     14.0707250237214261      0.3899228043391981     -0.0614983635668988      0.6094706176874821      0.0000000000000000
     0.7219324423764240     -0.6089875364229010      2.3732410296966178      1.1586431173568434     13.9689125476108806      0.3936031294070562     -0.0526066166028172      0.5060121873906896      0.0000000000000000
     0.8094996137031411     -0.5967677720441954      2.1293684861737883      1.1694405471158982     13.8988392843555264      0.4114027544293664     -0.0479675301498233      0.3425463116056418      0.0000000000000000
     0.8963930052873585     -0.5440960734803730      1.8782066028158080      1.1779519192530155     13.8373781962966209      0.4248163909699494     -0.0421055115207697      0.3143739267487762      0.0000000000000000
     0.9778771106915489     -0.4492839205480725      1.6384909722068599      1.1833793882490875     13.7987703002971482      0.4255611417839288     -0.0311740633758834      0.0866956060401354      0.0000000000000000
     1.0480761495644839     -0.3094575744285558      1.4250836041945858      1.1822995163326988     13.8077752029556962      0.4333219286574100     -0.0241414185402870     -0.1366550586081162      0.0000000000000000
     1.1178886408791811     -0.1367384686728803      1.2618391380066827      1.1797873665112046     13.8160730082062688      0.4373584349688956     -0.0200408394922366     -0.0283012491939725      0.0000000000000000
     1.1941337343138505      0.0608807318476792      1.1697735489584256      1.1803218174756331     13.7730851076322587      0.4216646808170826     -0.0138812000365078      0.0064026627591745      0.0000000000000000
     1.2642221229742741      0.2826416871499104      1.1637397610266937      1.1795504346825503     13.7116887900502959      0.4082143783401260     -0.0106361793259055     -0.1935610997493435      0.0000000000000000
     1.3227939299148950      0.5228483659081580      1.2495368251753463      1.1745251439685089     13.6906433019903453      0.4039935254655973     -0.0094281373212290     -0.3180053042055622      0.0000000000000000
     1.3684624718300142      0.7706620950933093      1.4261387821644596      1.1652027026229441     13.7236572588662860      0.3913773293765551     -0.0055341260459245     -0.5363361055956462      0.0000000000000000
     1.3825980388471806      1.0011756492341968      1.6776620291631803      1.1476844299500970     13.8454391194284021      0.3738172976299607     -0.0019339218946892     -0.9240042015669339      0.0000000000000000
     1.3559892748209907      1.1905420576717098      1.9719818578631230      1.1209798652602005     14.0884422115962664      0.3619379560957352     -0.0007592417566551     -1.1405321130355082      0.0000000000000000
     1.3004578663272646      1.3367931223516436      2.2882506852690088      1.0903016792705496     14.3946228223082127      0.3464705593754194      0.0020829157455514     -1.2486547449563452      0.0000000000000000
     1.2247729070057003      1.4410141523288496      2.6110328923067327      1.0589620194256195     14.6904053955860228      0.3061620070813609      0.0152760096853715     -1.2766699891770625      0.0000000000000000
     1.1452388180873896      1.5095718602356134      2.9194577624902456      1.0318280652100782     14.8873063185077754      0.2483718536931801      0.0386151591929615     -0.9544357542343559      0.0000000000000000
     1.0733398552011821      1.5494624807320707      3.1938967668589915      1.0135594279920499     14.9382212368075642      0.2154614497606748      0.0539070732618054     -0.6184393129186877      0.0000000000000000
     0.9943897661101855      1.5400403019008246      3.3882048379085656      0.9987352426056240     14.9856740430617190      0.2042944694891679      0.0563399903499831     -0.6895866571785491      0.0000000000000000
     0.8967302664856382      1.4677696027989389      3.4693765029445642      0.9781346068532368     15.1574147522123539      0.1623498959582366      0.0597614042516504     -0.8591104287614194      0.0000000000000000
     0.7999474617472390      1.3677656617693610      3.4841033315542567      0.9572443319375409     15.3154765903669361      0.0925673731397815      0.0685415357794950     -0.7269575511176620      0.0000000000000000
     0.7217832168742606      1.2708353191496693      3.4707679963474862      0.9434615418922379     15.3546830898168274      0.0482227706062558      0.0726954479703694     -0.3830260007555442      0.0000000000000000
     0.6638516656560002      1.1789648162456259      3.4153388531851978      0.9366538039860642     15.3521091457040999      0.0486905059700733      0.0649380478168177     -0.1658880037110687      0.0000000000000000
     0.6180071753075639      1.0819738706502120      3.2988960018879019      0.9317048583056529     15.3909493320009592      0.0669836023383311      0.0458055917841731     -0.2581152832269914      0.0000000000000000
     0.5784503575709719      0.9821674010925092      3.1465245326798916      0.9249083399265599     15.4905133782555389      0.0773106456719169      0.0180210267967500     -0.2316312727807059      0.0000000000000000
     0.5504409674857488      0.9047956391656227      3.0377443379589586      0.9238202117876383     15.5118681678202162      0.0902832305116645     -0.0069247319527407      0.2537609386601913      0.0000000000000000
     0.5361296516991307      0.8593336540499587      3.0138299507319322      0.9366692440682917     15.3233120929826789      0.1175549608832743     -0.0167034081742931      0.6577252374171642      0.0000000000000000
     0.5288500275948783      0.8333020911857031      3.0316888495026619      0.9533710487234767     15.1542408824462846      0.1458416166492992     -0.0253555868478695      0.6503555595659416      0.0000000000000000
     0.5206963545289229      0.8106707191100282      3.0592252118921635      0.9673367566121176     15.0785810418595325      0.1660340017528375     -0.0439760951043614      0.6401819194981053      0.0000000000000000
     0.5094343976754481      0.7871676393788966      3.1212543414010909      0.9851098582991633     14.9447849256358545      0.1837258530123597     -0.0570187905621538      0.9204410874950969      0.0000000000000000
     0.4943178467985904      0.7623586105534137      3.2391342386373960      1.0099362411805497     14.7253815972618600      0.2013464847774191     -0.0558218319793078      1.1383978145898461      0.0000000000000000
     0.4724991621667500      0.7246276874968401      3.3796230086740748      1.0352698945448733     14.5267808720288976      0.2146715489574054     -0.0540481503935573      0.8369942115190013      0.0000000000000000
     0.4422925432933812      0.6589069853183216      3.4729777129360526      1.0497207867592404     14.4857044132550890      0.2188619777333702     -0.0657668129377087      0.2505032241908325      0.0000000000000000
     0.4090353259723912      0.5699118594738266      3.5108569570801311      1.0541655431253643     14.5799611322093412      0.2203500752640966     -0.0846181405703220      0.2467199698330128      0.0000000000000000
     0.3814422226632599      0.4805235600781610      3.5782787810780148      1.0648961075020362     14.5861088240341132      0.2343659514963022     -0.0876545537672156      0.6650088975792177      0.0000000000000000
     0.3598516357861443      0.3912644700964859      3.6704629321220450      1.0806175108041889     14.5221982257750497      0.2569287012407852     -0.0810382051751750      0.4609470256427982      0.0000000000000000
     0.3409768608054886      0.2947687745005408      3.7111879778510435      1.0856060962090104     14.5976663664941615      0.2719148725553451     -0.0936796830560243      0.0728943448357193      0.0000000000000000
     0.3269462915915962      0.1971550493515165      3.7608669669731496      1.0912063941053527     14.6361689075229009      0.2740604452209360     -0.1072221138078599      0.4917895176451426      0.0000000000000000
     0.3205356241131548      0.0989924307191866      3.8740115732913245      1.1099365820292739     14.4949918622139098      0.2756986218659108     -0.0948439950723258      0.8518356047329874      0.0000000000000000
